# n + 208Pb: Gamma-ray intensity - 209Pb: Level  9 --> Level  3 - gamma energy    0.923910
# E-initial  =   2.491000 E-final=   1.567090
# E-threshold= 0.00000E+00
# # energies =    67
#    E           xs
 1.00000E-11 0.00000E+00
 2.53000E-08 0.00000E+00
 2.00000E-07 0.00000E+00
 1.00000E-06 4.42748E-05
 1.00000E-03 4.92605E-05
 2.00000E-03 8.72828E-05
 5.00000E-03 1.32845E-04
 1.00000E-02 1.13964E-04
 2.00000E-02 7.47529E-05
 5.00000E-02 5.21656E-05
 1.00000E-01 4.91378E-05
 2.00000E-01 4.88756E-05
 3.00000E-01 4.88399E-05
 4.00000E-01 4.88648E-05
 5.00000E-01 5.00867E-05
 7.50000E-01 5.88699E-05
 1.00000E+00 7.34812E-05
 1.20000E+00 8.85884E-05
 1.40000E+00 1.07456E-04
 1.60000E+00 1.29708E-04
 1.80000E+00 1.56695E-04
 2.00000E+00 1.89210E-04
 2.20000E+00 2.27211E-04
 2.40000E+00 2.71736E-04
 2.60000E+00 3.25674E-04
 2.80000E+00 2.55897E-04
 3.00000E+00 2.47519E-04
 3.20000E+00 2.61802E-04
 3.40000E+00 2.53072E-04
 3.60000E+00 2.50973E-04
 3.80000E+00 2.53507E-04
 4.00000E+00 2.55902E-04
 4.20000E+00 2.31001E-04
 4.40000E+00 1.92421E-04
 4.60000E+00 1.69343E-04
 4.80000E+00 1.59574E-04
 5.00000E+00 1.44013E-04
 5.50000E+00 1.14483E-04
 6.00000E+00 8.96687E-05
 6.50000E+00 7.26170E-05
 7.00000E+00 6.04475E-05
 7.50000E+00 5.63344E-05
 8.00000E+00 5.51633E-05
 8.50000E+00 5.75091E-05
 9.00000E+00 6.47382E-05
 9.50000E+00 7.59865E-05
 1.00000E+01 9.09058E-05
 1.10000E+01 1.32749E-04
 1.20000E+01 1.72753E-04
 1.30000E+01 1.79833E-04
 1.40000E+01 1.60153E-04
 1.50000E+01 1.39466E-04
 1.60000E+01 1.17260E-04
 1.70000E+01 1.07076E-04
 1.80000E+01 8.93147E-05
 1.90000E+01 8.38526E-05
 2.00000E+01 7.97023E-05
 2.10000E+01 7.02396E-05
 2.20000E+01 6.60275E-05
 2.30000E+01 6.04687E-05
 2.40000E+01 5.05644E-05
 2.50000E+01 4.68945E-05
 2.60000E+01 4.11851E-05
 2.70000E+01 3.83646E-05
 2.80000E+01 3.39643E-05
 2.90000E+01 3.14166E-05
 3.00000E+01 2.98056E-05
