# n + 208Pb: Gamma-ray intensity - 209Pb: Level 10 --> Level  3 - gamma energy    0.970910
# E-initial  =   2.538000 E-final=   1.567090
# E-threshold= 0.00000E+00
# # energies =    67
#    E           xs
 1.00000E-11 0.00000E+00
 2.53000E-08 0.00000E+00
 2.00000E-07 0.00000E+00
 1.00000E-06 4.90286E+01
 1.00000E-03 1.72212E-01
 2.00000E-03 1.02808E-01
 5.00000E-03 5.85498E-02
 1.00000E-02 3.67358E-02
 2.00000E-02 2.11812E-02
 5.00000E-02 1.04668E-02
 1.00000E-01 6.55730E-03
 2.00000E-01 4.36772E-03
 3.00000E-01 3.66393E-03
 4.00000E-01 3.39489E-03
 5.00000E-01 3.32029E-03
 7.50000E-01 3.56363E-03
 1.00000E+00 4.16143E-03
 1.20000E+00 4.84119E-03
 1.40000E+00 5.74804E-03
 1.60000E+00 6.81053E-03
 1.80000E+00 8.14573E-03
 2.00000E+00 9.77094E-03
 2.20000E+00 1.16807E-02
 2.40000E+00 1.39275E-02
 2.60000E+00 1.67955E-02
 2.80000E+00 1.55986E-02
 3.00000E+00 1.60534E-02
 3.20000E+00 1.73238E-02
 3.40000E+00 1.85677E-02
 3.60000E+00 2.03046E-02
 3.80000E+00 2.14325E-02
 4.00000E+00 2.30511E-02
 4.20000E+00 2.23528E-02
 4.40000E+00 1.78827E-02
 4.60000E+00 1.55273E-02
 4.80000E+00 1.43923E-02
 5.00000E+00 1.25296E-02
 5.50000E+00 9.27744E-03
 6.00000E+00 6.78588E-03
 6.50000E+00 5.41472E-03
 7.00000E+00 4.39640E-03
 7.50000E+00 4.18645E-03
 8.00000E+00 4.07247E-03
 8.50000E+00 4.20989E-03
 9.00000E+00 4.76304E-03
 9.50000E+00 5.60588E-03
 1.00000E+01 6.50662E-03
 1.10000E+01 9.51659E-03
 1.20000E+01 1.26599E-02
 1.30000E+01 1.26421E-02
 1.40000E+01 1.14440E-02
 1.50000E+01 1.04138E-02
 1.60000E+01 9.13087E-03
 1.70000E+01 8.74482E-03
 1.80000E+01 6.89152E-03
 1.90000E+01 6.65827E-03
 2.00000E+01 6.48946E-03
 2.10000E+01 5.79306E-03
 2.20000E+01 5.55612E-03
 2.30000E+01 5.14066E-03
 2.40000E+01 4.26010E-03
 2.50000E+01 3.96451E-03
 2.60000E+01 3.45590E-03
 2.70000E+01 3.03730E-03
 2.80000E+01 2.55853E-03
 2.90000E+01 2.34690E-03
 3.00000E+01 2.22409E-03
